0
267
535
1071
1339
1607
1874
2142
2678
3214
3482
3749
4017
4285
4821
5357
5892
6160
6428
6964
7499
7767
8035
8303
8571
9107
9642
9910
10178
10446
10714
11249
11785
12321
12857
13392
13928
14464
14732
14999
15535
16071
17142
18214
18482
18749
19017
19285
19821
20357
20892
21428
21964
22499
23035
23303
23571
24107
24642
34285
34553
34821
35089
35624
35892
36160
36428
36696
36964
37232
37499
37767
38035
38571
38839
39107
39374
39910
40178
40446
40714
40982
41249
41517
42053
42321
42589
43124
43392
45267
45535
47410
47678
48482
48749
49553
49821
50624
50892
51428
51696
51964
52232
52499
52767
53035
53303
53571
53839
54107
54374
54642
54910
55178
55446
55714
57857
62142
62410
62678
62946
64285
65357
65892
66428
68571
68839
69107
69374
70714
70982
71249
71517
72857
73928
74464
74999
79285
79821
80357
80892
81428
81964
82499
83035
83571
84107
84642
85178
85714
86249
86785
87321
88124
88392
90267
90535
92142
92678
93214
93749
94285
94821
95357
95892
96428
97232
98571
99374
100714
101517
102857
103660
104999
105803
107142
107946
109285
110089
111428
112232
113571
113839
114107
114642
114910
115178
115446
115714
115982
116249
116785
117321
117857
118124
118392
118928
119464
119732
119999
120267
120535
121071
121339
121607
121874
122142
122410
122678
123214
123482
123749
124017
124285
124553
124821
125357
125892
126428
126696
126964
127499
128035
128303
128571
128839
129107
129642
130714
130982
131249
131785
132053
132321
132589
132857
133124
133392
133928
134196
134464
134732
134999
135267
135535
136071
136607
136874
137142
137410
137678
137946
138214
138482
138749
139017
139285
139553
139821
140089
140357
140624
140892
141160
141428
142499
142767
143035
143303
143571
144642
145178
145714
146785
147321
147589
147857
148928
149999
151071
151339
151607
151874
152142
153214
153749
154285
155357
155892
156160
156428
157499
158571
159642
159910
160178
160446
160714
161785
162321
162857
163928
164464
164732
164999
166071
167142
168214
168482
168749
169017
169285
170357
170892
171428
172499
173035
173303
173571
174642
175714
#1
1
12
1
1
2
3
4
34
4
34
3
23
2
13
2
2
4
3
23
3
3
2
1
1
1
1
1
2
3
4
34
4
3
2
13
2
2
4
3
3
3
1
1
1
2
3
4
34
4
3
2
13
2
2
4
3
3
3
12
12
12
12
12
12
12
23
23
23
23
23
23
13
13
13
13
13
13
13
13
24
24
24
24
24
24
24
12
12
23
23
12
12
12
12
23
23
23
23
12
12
12
12
12
12
12
12
23
23
23
23
23
23
23
23
12
13
1
2
3
4
34
23
24
13
1
2
3
4
1
2
3
4
34
23
24
13
12
12
12
12
23
23
23
23
12
12
12
12
23
23
23
23
12
12
23
23
12
12
12
12
23
23
23
23
12
12
12
12
23
23
23
23
12
12
12
12
23
23
13
13
12
12
12
1
1
2
3
34
34
34
4
3
2
12
12
2
2
34
23
23
23
3
3
2
1
12
12
12
1
1
2
3
34
34
34
4
3
2
12
12
2
2
34
23
23
23
3
12
12
12
1
1
2
3
34
34
34
4
34
3
23
2
12
12
2
2
34
23
23
23
23
23
23
23
24
24
24
24
24
24
24
24
24
1
1
1
2
3
4
3
2
1
1
1
3
2
2
1
1
1
2
3
4
3
2
1
1
1
3
2
2
1
1
1
2
3
4
3
2
1
1
1
3
2
2
1
1
1
2
3
4
3
2
1
1
1
3
2
2
14
#133
133
133
133
133
133
133
133
133
133
133
133
133
133
133
133
133
133
133
133
133
133
133
133
133
133
133
133
133
133
133
133
133
133
133
133
133
133
133
133
133
133
133
133
133
133
133
133
133
133
133
133
133
133
133
133
133
133
133
133
133
133
133
133
133
133
133
133
267
133
133
133
133
133
133
133
133
133
133
133
133
133
133
133
133
133
133
133
133
133
133
133
133
133
133
133
133
133
133
267
267
267
267
267
267
267
267
267
267
267
267
267
267
267
267
2142
4285
267
267
267
1339
1071
535
535
2142
267
267
267
1339
267
267
267
1339
1071
535
535
1607
535
535
535
535
535
535
535
535
535
535
535
535
535
535
535
535
133
133
133
133
535
535
535
535
535
535
535
535
803
803
803
803
803
803
803
803
803
803
803
803
803
803
803
803
133
133
133
133
133
133
133
133
133
133
133
133
133
133
133
133
133
133
133
133
133
133
133
133
133
133
133
133
133
133
133
133
133
133
133
133
133
133
133
133
133
133
133
133
133
133
133
133
133
133
133
133
133
133
133
133
133
133
133
133
133
133
133
133
133
133
133
133
133
133
133
133
133
133
133
133
133
133
133
133
133
133
133
133
133
133
133
133
133
133
133
133
133
133
133
133
133
133
133
133
133
133
133
133
133
133
133
133
133
133
133
133
133
133
133
133
133
133
133
133
133
133
133
133
133
133
133
133
133
133
133
133
133
133
133
133
133
133
133
5892
