0
267
535
2142
2410
2678
4285
4553
4821
6428
6696
6964
8571
9107
9374
9910
10178
10446
10714
11249
11517
12053
12321
12589
12857
13392
13660
14196
14464
14732
14999
15535
15803
16339
16607
16874
17142
17678
17946
18482
18749
19017
19285
19821
20089
20624
20892
21160
21428
21964
22232
22767
23035
23303
23571
24107
24374
24910
25178
25446
25714
25982
26249
26517
26785
27053
27321
27589
27857
28124
28392
28660
28928
29196
29464
29732
29999
30267
30535
30803
31071
31339
31607
31874
32142
32410
32678
32946
33214
33482
33749
34017
43124
43392
45267
45535
47410
47678
48482
48749
49553
49821
50624
50892
51294
51428
51964
52366
52767
53035
53571
54107
54508
54910
55178
55714
57321
57857
62142
62678
62946
63482
63749
64017
64285
64821
65089
65624
65892
66160
66428
66964
67232
67767
68035
68303
68571
69107
69374
69910
70178
70446
70714
71249
71517
72053
72321
72589
72857
73392
73660
74196
74464
74732
74999
75267
75535
79285
79821
80089
80624
80892
81160
81428
81964
82232
82767
83035
83303
83571
84107
84374
84910
85178
85446
85714
86249
86517
87053
87321
87589
88124
88392
90267
90535
92142
92678
92946
93482
93749
94017
94285
94821
95089
95624
95892
96160
96428
96964
97232
98035
98571
99107
99374
100178
100714
101249
101517
102321
102857
103392
103660
104464
104999
105535
105803
106607
107142
107678
107946
108749
109285
109821
110089
110892
111428
111964
112232
113035
113571
113839
114107
115714
115982
116249
118124
118392
119732
119999
120267
120535
122142
122410
122678
124285
124553
124821
126696
126964
128303
128571
128839
129107
130714
130982
131249
131785
132053
132321
132857
133124
133392
133928
134196
134464
134999
135267
135535
136071
136339
136607
137142
137410
137678
137946
138214
138482
138749
139017
139285
139553
139821
140089
140357
140624
140892
141428
141964
142232
142767
143035
143303
143571
144107
144374
144910
145178
145446
145714
146249
146517
147053
147321
147589
147857
148392
148660
149196
149464
149732
149999
150535
150803
151339
151607
151874
152142
152678
152946
153482
153749
154017
154285
154821
155089
155624
155892
156160
156428
156964
157232
157767
158035
158303
158571
159107
159374
159910
160178
160446
160714
161249
161517
162053
162321
162589
162857
163392
163660
164196
164464
164732
164999
165535
165803
166339
166607
166874
167142
167678
167946
168482
168749
169017
169285
169821
170089
170624
170892
171160
171428
171964
172232
172767
173035
173303
173571
174107
174374
174910
175178
175446
175714
#3
3
3
3
3
3
3
3
3
3
3
3
14
3
2
1
3
4
1
3
2
1
3
4
1
3
2
1
3
4
1
3
2
1
3
4
14
3
2
1
3
4
1
3
2
1
3
4
1
3
2
1
3
4
1
3
2
1
3
4
2
2
2
2
2
2
2
2
2
2
2
2
2
2
2
2
2
2
2
2
2
2
2
2
2
2
2
2
2
24
2
24
3
3
3
3
3
3
3
3
3
3
3
3
3
14
3
3
1
3
1
3
3
1
3
14
3
14
14
3
2
1
3
4
1
3
2
1
3
4
1
3
2
1
3
4
1
3
2
1
3
4
14
3
2
1
3
4
1
3
2
1
3
4
3
3
3
14
3
2
1
3
4
1
3
2
1
3
4
1
3
2
1
3
4
1
3
2
1
3
4
3
3
3
3
14
3
2
1
3
4
1
3
2
1
3
4
14
3
14
3
14
3
14
3
14
3
14
3
14
3
14
3
14
3
14
3
14
3
14
3
14
3
14
3
14
3
14
3
3
3
3
3
3
3
3
3
3
3
3
3
3
3
3
3
3
3
3
3
3
3
3
3
3
3
3
1
1
3
3
3
3
1
1
3
3
3
3
1
1
3
3
3
3
3
3
3
3
3
3
3
3
3
3
3
3
14
3
2
1
3
4
1
3
2
1
3
4
1
3
2
1
3
4
1
3
2
1
3
4
14
3
2
1
3
4
1
3
2
1
3
4
1
3
2
1
3
4
1
3
2
1
3
4
14
3
2
1
3
4
1
3
2
1
3
4
1
3
2
1
3
4
1
3
2
1
3
4
14
3
2
1
3
4
1
3
2
1
3
4
1
3
2
1
3
4
1
3
2
3
3
3
13
#133
133
133
133
133
133
133
133
133
133
133
133
133
133
133
133
133
133
133
133
133
133
133
133
133
133
133
133
133
133
133
133
133
133
133
133
133
133
133
133
133
133
133
133
133
133
133
133
133
133
133
133
133
133
133
133
133
133
133
133
133
133
133
133
133
133
133
133
133
133
133
133
133
133
133
133
133
133
133
133
133
133
133
133
133
133
133
133
133
133
133
133
133
133
133
133
133
133
133
133
133
133
133
133
133
133
133
133
133
133
133
133
133
133
133
133
133
133
133
133
133
133
133
133
133
133
133
133
133
133
133
133
133
133
133
133
133
133
133
133
133
133
133
133
133
133
133
133
133
133
133
133
133
133
133
133
133
133
133
133
133
133
133
133
133
133
133
133
133
133
133
133
133
133
133
133
133
133
133
133
133
133
133
133
133
133
133
133
133
133
133
133
133
133
133
133
133
133
133
133
133
133
133
133
133
133
133
133
133
133
133
133
133
133
133
133
133
133
133
133
133
133
133
133
133
133
133
133
133
133
133
133
133
133
133
133
133
133
133
133
133
133
133
133
133
133
133
133
133
133
133
133
133
133
133
133
133
133
133
133
133
133
133
133
133
133
133
133
133
133
133
133
133
133
133
133
133
133
133
133
133
133
133
133
133
133
133
133
133
133
133
133
133
133
133
133
133
133
133
133
133
133
133
133
133
133
133
133
133
133
133
133
133
133
133
133
133
133
133
133
133
133
133
133
133
133
133
133
133
133
133
133
133
133
133
133
133
133
133
133
133
133
133
133
133
133
133
133
133
133
133
133
133
133
133
133
133
133
133
133
133
133
133
133
133
133
133
133
133
133
133
133
133
133
133
133
133
133
133
133
133
133
133
